time;density;r4
0.0;0.029724279693273733;0.009999999999999247;
0.01;0.03440775614451029;0.009999999999999247;
0.02;0.03903928072180071;0.009999999999999247;
0.03;0.043710444879211885;0.009999999999999247;
0.04;0.048338966458008316;0.009999999999999247;
0.05;0.053034154603371464;0.009999999999999247;
0.06;0.05763865219421592;0.009999999999999247;
0.07;0.06219660330840344;0.009999999999999247;
0.08;0.066715515442169;0.009999999999999247;
0.09;0.07122541858045257;0.009999999999999247;
0.1;0.07576294930488092;0.009999999999999247;
0.11;0.08028276233819469;0.009999999999999247;
0.12;0.0847659387898817;0.009999999999999247;
0.13;0.08925301913961091;0.009999999999999247;
0.14;0.09369685631102656;0.009999999999999247;
0.15;0.09809594880488168;0.009999999999999247;
0.16;0.10242597233337487;0.009999999999999247;
0.17;0.1068103501346094;0.009999999999999247;
0.18;0.11117250574698836;0.009999999999999247;
0.19;0.11551514186915635;0.009999999999999247;
0.2;0.11983255280397476;0.009999999999999247;
0.21;0.1241253391511424;0.009999999999999247;
0.22;0.12840010750734607;0.009999999999999247;
0.23;0.13264995097604956;0.009999999999999247;
0.24;0.13681210688872839;0.009999999999999247;
0.25;0.14100519368589537;0.009999999999999247;
0.26;0.14519197418622495;0.009999999999999247;
0.27;0.1493207968156204;0.009999999999999247;
0.28;0.15346853833552804;0.009999999999999247;
0.29;0.15763069424820686;0.009999999999999247;
0.3;0.1617631204757951;0.009999999999999247;
0.31;0.16588473590880498;0.009999999999999247;
0.32;0.17001175673910404;0.009999999999999247;
0.33;0.17406430320675198;0.009999999999999247;
0.34;0.17809432718569496;0.009999999999999247;
0.35000000000000003;0.18211203887081254;0.009999999999999247;
0.36;0.18612584665788792;0.009999999999999247;
0.37;0.19009160646905937;0.009999999999999247;
0.38;0.19410661545553237;0.009999999999999247;
0.39;0.1980150179954685;0.009999999999999247;
0.4;0.20188618335407907;0.009999999999999247;
0.41000000000000003;0.20581350478452737;0.009999999999999247;
0.42;0.20967776324660176;0.009999999999999247;
0.43;0.21354172140882674;0.009999999999999247;
0.44;0.21730297702255705;0.009999999999999247;
0.45;0.22116663488493263;0.009999999999999247;
0.46;0.2249633258808921;0.009999999999999247;
0.47000000000000003;0.22869725420832704;0.009999999999999247;
0.48;0.23243148283561138;0.009999999999999247;
0.49;0.2361777234568717;0.009999999999999247;
0.5;0.2399612012594576;0.009999999999999247;
0.51;0.24365398850752482;0.009999999999999247;
0.52;0.24733146046327262;0.009999999999999247;
0.53;0.25101523871585785;0.009999999999999247;
0.54;0.2546858037750695;0.009999999999999247;
0.55;0.2582581707835274;0.009999999999999247;
0.56;0.2618245317949974;0.009999999999999247;
0.5700000000000001;0.2654098116969795;0.009999999999999247;
0.58;0.26899028680137127;0.009999999999999247;
0.59;0.2725079992372385;0.009999999999999247;
0.6;0.27602030627581653;0.009999999999999247;
0.61;0.27952630701755715;0.009999999999999247;
0.62;0.2830428182540268;0.009999999999999247;
0.63;0.2865749450826652;0.009999999999999247;
0.64;0.29005722213630325;0.009999999999999247;
0.65;0.2935184782004833;0.009999999999999247;
0.66;0.29697372826767543;0.009999999999999247;
0.67;0.3004358852314037;0.009999999999999247;
0.68;0.30382026453413746;0.009999999999999247;
0.6900000000000001;0.30719653574093747;0.009999999999999247;
0.7000000000000001;0.3105665006509001;0.009999999999999247;
0.71;0.3139190481695975;0.009999999999999247;
0.72;0.3172691932894997;0.009999999999999247;
0.73;0.32059231142295597;0.009999999999999247;
0.74;0.3238457599913515;0.009999999999999247;
0.75;0.3272154246014647;0.009999999999999247;
0.76;0.3305556598263367;0.009999999999999247;
0.77;0.33375024962424993;0.009999999999999247;
0.78;0.3370481425703566;0.009999999999999247;
0.79;0.34027966924974595;0.009999999999999247;
0.8;0.3435120968286835;0.009999999999999247;
0.81;0.3467135935231329;0.009999999999999247;
0.8200000000000001;0.34988205723414834;0.009999999999999247;
0.8300000000000001;0.3530601305403446;0.009999999999999247;
0.84;0.35620126696506466;0.009999999999999247;
0.85;0.35931777880213395;0.009999999999999247;
0.86;0.3624126690500465;0.009999999999999247;
0.87;0.3655754270639233;0.009999999999999247;
0.88;0.36870274969557104;0.009999999999999247;
0.89;0.37181565793444754;0.009999999999999247;
0.9;0.3749201577775409;0.009999999999999247;
0.91;0.3779579910540675;0.009999999999999247;
0.92;0.38096279134716016;0.009999999999999247;
0.93;0.38393726135546347;0.009999999999999247;
0.9400000000000001;0.3869102298645198;0.009999999999999247;
0.9500000000000001;0.3898853004725219;0.009999999999999247;
0.96;0.39283124199513225;0.009999999999999247;
0.97;0.39578679311292336;0.009999999999999247;
0.98;0.3987282301377927;0.009999999999999247;
0.99;0.40162221978645685;0.009999999999999247;
1.0;0.404559752913284;0.009999999999999247;
1.01;0.4074444332666168;0.009999999999999247;
1.02;0.4103981825853115;0.009999999999999247;
1.03;0.41326274284873454;0.009999999999999247;
1.04;0.4160912671302296;0.009999999999999247;
1.05;0.4188876593278389;0.009999999999999247;
1.06;0.4217119794114424;0.009999999999999247;
1.07;0.4245236869013711;0.009999999999999247;
1.08;0.42739094986343873;0.009999999999999247;
1.09;0.4301486033804755;0.009999999999999247;
1.1;0.4329230736890786;0.009999999999999247;
1.11;0.435659405916808;0.009999999999999247;
1.12;0.43835459706516966;0.009999999999999247;
1.1300000000000001;0.44110924758371245;0.009999999999999247;
1.1400000000000001;0.443873507697436;0.009999999999999247;
1.1500000000000001;0.44662515521748475;0.009999999999999247;
1.16;0.4493092352714186;0.009999999999999247;
1.17;0.4519849069295693;0.009999999999999247;
1.18;0.4546386566987138;0.009999999999999247;
1.19;0.45728369777222566;0.009999999999999247;
1.2;0.4598921022641108;0.009999999999999247;
1.21;0.4625278340422913;0.009999999999999247;
1.22;0.4651647670198694;0.009999999999999247;
1.23;0.46768458305618166;0.009999999999999247;
1.24;0.47032992442954297;0.009999999999999247;
1.25;0.4729686592062175;0.009999999999999247;
1.26;0.47549177854087316;0.009999999999999247;
1.27;0.4780467296595652;0.009999999999999247;
1.28;0.48062540446635976;0.009999999999999247;
1.29;0.48314401930327444;0.009999999999999247;
1.3;0.4856572287428999;0.009999999999999247;
1.31;0.488135603399995;0.009999999999999247;
1.32;0.49068214612290384;0.009999999999999247;
1.33;0.49317823847111353;0.009999999999999247;
1.34;0.49564009663649167;0.009999999999999247;
1.35;0.49806141432220086;0.009999999999999247;
1.36;0.5005004496990246;0.009999999999999247;
1.37;0.5029409865750953;0.009999999999999247;
1.3800000000000001;0.5053571991633647;0.009999999999999247;
1.3900000000000001;0.507742480867146;0.009999999999999247;
1.4000000000000001;0.5101701048496926;0.009999999999999247;
1.41;0.5125085397769675;0.009999999999999247;
1.42;0.5149121397715621;0.009999999999999247;
1.43;0.5172097339193187;0.009999999999999247;
1.44;0.5195598805407201;0.009999999999999247;
1.45;0.5219292463524832;0.009999999999999247;
1.46;0.5242664800803605;0.009999999999999247;
1.47;0.5265995096103462;0.009999999999999247;
1.48;0.5289235301448499;0.009999999999999247;
1.49;0.5312109140977269;0.009999999999999247;
1.5;0.5335334331329836;0.009999999999999247;
1.51;0.5358214176855594;0.009999999999999247;
1.52;0.5381000929428037;0.009999999999999247;
1.53;0.5403235130277585;0.009999999999999247;
1.54;0.542546632812864;0.009999999999999247;
1.55;0.5447886714884815;0.009999999999999247;
1.56;0.5469985780802133;0.009999999999999247;
1.57;0.54919106728068;0.009999999999999247;
1.58;0.5513991720733155;0.009999999999999247;
1.59;0.5535769465811615;0.009999999999999247;
1.6;0.5557460123933751;0.009999999999999247;
1.61;0.5578901533180884;0.009999999999999247;
1.62;0.5600502101348199;0.009999999999999247;
1.6300000000000001;0.5622135702498948;0.009999999999999247;
1.6400000000000001;0.5643459994804816;0.009999999999999247;
1.6500000000000001;0.5664291795357668;0.009999999999999247;
1.6600000000000001;0.5685270742836726;0.009999999999999247;
1.67;0.5706372813254037;0.009999999999999247;
1.68;0.5727006415906285;0.009999999999999247;
1.69;0.5747817195469679;0.009999999999999247;
1.7;0.5768453801120421;0.009999999999999247;
1.71;0.5788955271838934;0.009999999999999247;
1.72;0.5809784069393291;0.009999999999999247;
1.73;0.58305377919853;0.009999999999999247;
1.74;0.5850699923873991;0.009999999999999247;
1.75;0.5870624818881656;0.009999999999999247;
1.76;0.5890756920785406;0.009999999999999247;
1.77;0.5910318452975297;0.009999999999999247;
1.78;0.5930075180067299;0.009999999999999247;
1.79;0.5949822898163818;0.009999999999999247;
1.8;0.5969438484326601;0.009999999999999247;
1.81;0.5989270286380952;0.009999999999999247;
1.82;0.6008936923518133;0.009999999999999247;
1.83;0.6028579536667363;0.009999999999999247;
1.84;0.6048087014884364;0.009999999999999247;
1.85;0.6067477376160098;0.009999999999999247;
1.86;0.6086885755426795;0.009999999999999247;
1.87;0.6106008849836564;0.009999999999999247;
1.8800000000000001;0.6124966779329162;0.009999999999999247;
1.8900000000000001;0.6143831615868446;0.009999999999999247;
1.9000000000000001;0.6162972728269178;0.009999999999999247;
1.9100000000000001;0.6181864591794909;0.009999999999999247;
1.92;0.6200423122487806;0.009999999999999247;
1.93;0.6219284956028597;0.009999999999999247;
1.94;0.6237744387771191;0.009999999999999247;
1.95;0.6256125741552943;0.009999999999999247;
1.96;0.6274245834465716;0.009999999999999247;
1.97;0.6292179741471862;0.009999999999999247;
1.98;0.6310152687458429;0.009999999999999247;
1.99;0.6327810318603126;0.009999999999999247;
2.0;0.634566014165144;0.009999999999999247;
2.0100000000000002;0.6363527982690718;0.009999999999999247;
2.02;0.6381218646818849;0.009999999999999247;
2.0300000000000002;0.6399059460871681;0.009999999999999247;
2.04;0.6416515891117281;0.009999999999999247;
2.05;0.6434044393326738;0.009999999999999247;
2.06;0.6451608931518121;0.009999999999999247;
2.07;0.6468864160864624;0.009999999999999247;
2.08;0.648624251314938;0.009999999999999247;
2.09;0.6503527772480822;0.009999999999999247;
2.1;0.6520287507075815;0.009999999999999247;
2.11;0.6537284478551834;0.009999999999999247;
2.12;0.6553650820344114;0.009999999999999247;
2.13;0.657002917413037;0.009999999999999247;
2.14;0.6586857977690724;0.009999999999999247;
2.15;0.6603644739272163;0.009999999999999247;
2.16;0.6620461530838542;0.009999999999999247;
2.17;0.6636999043544979;0.009999999999999247;
2.18;0.6653071091484847;0.009999999999999247;
2.19;0.6669395391298211;0.009999999999999247;
2.2;0.6685413385265186;0.009999999999999247;
2.21;0.6701650598122224;0.009999999999999247;
2.22;0.6717755679045526;0.009999999999999247;
2.23;0.673379469400196;0.009999999999999247;
2.24;0.6750236110756589;0.009999999999999247;
2.25;0.6766179029761215;0.009999999999999247;
2.2600000000000002;0.6782353179649878;0.009999999999999247;
2.27;0.6797812615896971;0.009999999999999247;
2.2800000000000002;0.6813431211064246;0.009999999999999247;
2.29;0.682882458134447;0.009999999999999247;
2.3000000000000003;0.6844758491353614;0.009999999999999247;
2.31;0.6860407116505829;0.009999999999999247;
2.32;0.6875749435811656;0.009999999999999247;
2.33;0.6890983647171699;0.009999999999999247;
2.34;0.6906250891515175;0.009999999999999247;
2.35;0.6921422039906845;0.009999999999999247;
2.36;0.6935950546620798;0.009999999999999247;
2.37;0.6950677251235355;0.009999999999999247;
2.38;0.6965674225714372;0.009999999999999247;
2.39;0.6980466996295798;0.009999999999999247;
2.4;0.6995025532994692;0.009999999999999247;
2.41;0.7009475961747802;0.009999999999999247;
2.42;0.7023851315538562;0.009999999999999247;
2.43;0.7038713155085349;0.009999999999999247;
2.44;0.7053070490885145;0.009999999999999247;
2.45;0.7067415814690965;0.009999999999999247;
2.46;0.7081556934599194;0.009999999999999247;
2.47;0.7095845201433628;0.009999999999999247;
2.48;0.7109815150427699;0.009999999999999247;
2.49;0.7123953267337433;0.009999999999999247;
2.5;0.7138238531173373;0.009999999999999247;
2.5100000000000002;0.715208535722919;0.009999999999999247;
2.52;0.7165866117318138;0.009999999999999247;
2.5300000000000002;0.7179169400646541;0.009999999999999247;
2.54;0.71931453556376;0.009999999999999247;
2.5500000000000003;0.7206815004782271;0.009999999999999247;
2.56;0.7220304474017302;0.009999999999999247;
2.57;0.7233863012217695;0.009999999999999247;
2.58;0.7247235364511461;0.009999999999999247;
2.59;0.726055065983384;0.009999999999999247;
2.6;0.72737758652014;0.009999999999999247;
2.61;0.7287229298454503;0.009999999999999247;
2.62;0.7300304353897362;0.009999999999999247;
2.63;0.7313304334377873;0.009999999999999247;
2.64;0.7326403413808684;0.009999999999999247;
2.65;0.7339268259356965;0.009999999999999247;
2.66;0.7352268239837475;0.009999999999999247;
2.67;0.7364760713572499;0.009999999999999247;
2.68;0.737722015432409;0.009999999999999247;
2.69;0.7390274188777491;0.009999999999999247;
2.7;0.7402940836425168;0.009999999999999247;
2.71;0.7415721598015617;0.009999999999999247;
2.72;0.7428340197687389;0.009999999999999247;
2.73;0.7440679518499219;0.009999999999999247;
2.74;0.7453066887286953;0.009999999999999247;
2.75;0.7465604405999388;0.009999999999999247;
2.7600000000000002;0.7477919702823266;0.009999999999999247;
2.77;0.7489979744775155;0.009999999999999247;
2.7800000000000002;0.7502240987626142;0.009999999999999247;
2.79;0.7514712440371708;0.009999999999999247;
2.8000000000000003;0.7526874584272393;0.009999999999999247;
2.81;0.7539018710182114;0.009999999999999247;
2.82;0.7550952626197255;0.009999999999999247;
2.83;0.7563361015974447;0.009999999999999247;
2.84;0.7575231869021214;0.009999999999999247;
2.85;0.7586808428215569;0.009999999999999247;
2.86;0.7598339942432515;0.009999999999999247;
2.87;0.7609958543605786;0.009999999999999247;
2.88;0.7621619186757973;0.009999999999999247;
2.89;0.7633159709970401;0.009999999999999247;
2.9;0.7644733266166263;0.009999999999999247;
2.91;0.7656078594476581;0.009999999999999247;
2.92;0.7667450949773345;0.009999999999999247;
2.93;0.7678577059193601;0.009999999999999247;
2.94;0.7689910375509943;0.009999999999999247;
2.95;0.7701204652845863;0.009999999999999247;
2.96;0.7712598029132085;0.009999999999999247;
2.97;0.7724045459391199;0.009999999999999247;
2.98;0.773482922698314;0.009999999999999247;
2.99;0.7745670051546466;0.009999999999999247;
3.0;0.7756627993051058;0.009999999999999247;
3.0100000000000002;0.7767838186429147;0.009999999999999247;
3.02;0.7778832163915667;0.009999999999999247;
3.0300000000000002;0.7789709024460921;0.009999999999999247;
3.04;0.7800582882007682;0.009999999999999247;
3.0500000000000003;0.781155283550625;0.009999999999999247;
3.06;0.7822063330235237;0.009999999999999247;
3.0700000000000003;0.7832603854949164;0.009999999999999247;
3.08;0.7843408643530563;0.009999999999999247;
3.09;0.7853928147255032;0.009999999999999247;
3.1;0.7864450653977995;0.009999999999999247;
3.11;0.7874564752905774;0.009999999999999247;
3.12;0.7884681854832047;0.009999999999999247;
3.13;0.7895201358556516;0.009999999999999247;
3.14;0.7905687829297551;0.009999999999999247;
3.15;0.7915886012183162;0.009999999999999247;
3.16;0.7925946057138049;0.009999999999999247;
3.17;0.7936138234026673;0.009999999999999247;
3.18;0.7946189269986078;0.009999999999999247;
3.19;0.7956282347924399;0.009999999999999247;
3.2;0.7966177227962117;0.009999999999999247;
3.21;0.7976411446829657;0.009999999999999247;
3.22;0.798637839883123;0.009999999999999247;
3.23;0.7995777784117438;0.009999999999999247;
3.24;0.8005411403286178;0.009999999999999247;
3.25;0.8015270247341968;0.009999999999999247;
3.2600000000000002;0.8024978941473058;0.009999999999999247;
3.27;0.8034453401721616;0.009999999999999247;
3.2800000000000002;0.8044105038881321;0.009999999999999247;
3.29;0.8053546466146445;0.009999999999999247;
3.3000000000000003;0.8062624530593796;0.009999999999999247;
3.31;0.8072417308682718;0.009999999999999247;
3.3200000000000003;0.8081810687971938;0.009999999999999247;
3.33;0.8091234097246098;0.009999999999999247;
3.34;0.8100366215666341;0.009999999999999247;
3.35;0.8109387223142306;0.009999999999999247;
3.36;0.8118669491487248;0.009999999999999247;
3.37;0.8127873681871347;0.009999999999999247;
3.38;0.8136864659362372;0.009999999999999247;
3.39;0.8145876657842854;0.009999999999999247;
3.4;0.8154960728287193;0.009999999999999247;
3.41;0.8163828582839964;0.009999999999999247;
3.42;0.8172837578321952;0.009999999999999247;
3.43;0.8181708435873217;0.009999999999999247;
3.44;0.8190576290425988;0.009999999999999247;
3.45;0.8199315016043517;0.009999999999999247;
3.46;0.8207843531766467;0.009999999999999247;
3.47;0.8216468143441223;0.009999999999999247;
3.48;0.8225119782102427;0.009999999999999247;
3.49;0.8233819468739534;0.009999999999999247;
3.5;0.8242176813548325;0.009999999999999247;
3.5100000000000002;0.8250711335268263;0.009999999999999247;
3.52;0.8259242853989706;0.009999999999999247;
3.5300000000000002;0.8267702300747293;0.009999999999999247;
3.54;0.8275867453652469;0.009999999999999247;
3.5500000000000003;0.8284347921399514;0.009999999999999247;
3.56;0.8292618179251979;0.009999999999999247;
3.5700000000000003;0.8300900449098421;0.009999999999999247;
3.58;0.8308891428090944;0.009999999999999247;
3.59;0.8317395919825942;0.009999999999999247;
3.6;0.8325425937798888;0.009999999999999247;
3.61;0.8333654153672438;0.009999999999999247;
3.62;0.8341834321570084;0.009999999999999247;
3.63;0.8350104579422549;0.009999999999999247;
3.64;0.8358041504442182;0.009999999999999247;
3.65;0.8366197648351875;0.009999999999999247;
3.66;0.8373981420448313;0.009999999999999247;
3.67;0.838177119854174;0.009999999999999247;
3.68;0.8389681096574926;0.009999999999999247;
3.69;0.8397452856677388;0.009999999999999247;
3.7;0.8405041433871716;0.009999999999999247;
3.71;0.8412765145998274;0.009999999999999247;
3.72;0.8420614984061581;0.009999999999999247;
3.73;0.8428431789141453;0.009999999999999247;
3.74;0.8436185531252951;0.009999999999999247;
3.75;0.8443623958522579;0.009999999999999247;
3.7600000000000002;0.8451134457756064;0.009999999999999247;
3.77;0.8458617930003103;0.009999999999999247;
3.7800000000000002;0.8466056357272731;0.009999999999999247;
3.79;0.8473407697586034;0.009999999999999247;
3.8000000000000003;0.8481023301766808;0.009999999999999247;
3.81;0.8488707974912945;0.009999999999999247;
3.8200000000000003;0.8496065321223235;0.009999999999999247;
3.83;0.8503236481626898;0.009999999999999247;
3.84;0.8510353588057669;0.009999999999999247;
3.85;0.851754576945079;0.009999999999999247;
3.86;0.8524728941848428;0.009999999999999247;
3.87;0.8532119321142153;0.009999999999999247;
3.88;0.8539374565503648;0.009999999999999247;
3.89;0.8546596776881709;0.009999999999999247;
3.9;0.8553722892307962;0.009999999999999247;
3.91;0.8560870028723674;0.009999999999999247;
3.92;0.8568044192125831;0.009999999999999247;
3.93;0.8574930067672565;0.009999999999999247;
3.94;0.8581939066157552;0.009999999999999247;
3.95;0.8588900016666635;0.009999999999999247;
3.96;0.8596047153082347;0.009999999999999247;
3.97;0.8602800896695344;0.009999999999999247;
3.98;0.8609473559349003;0.009999999999999247;
3.99;0.8616473548838509;0.009999999999999247;
4.0;0.8623104169513253;0.009999999999999247;
4.01;0.862997803306601;0.009999999999999247;
4.0200000000000005;0.8636407452841657;0.009999999999999247;
4.03;0.8643392427338692;0.009999999999999247;
4.04;0.865005608099687;0.009999999999999247;
4.05;0.8656275290877936;0.009999999999999247;
4.0600000000000005;0.866304104648491;0.009999999999999247;
4.07;0.8669503499243989;0.009999999999999247;
4.08;0.8676101086935298;0.009999999999999247;
4.09;0.8682440416756124;0.009999999999999247;
4.1;0.868909506141882;0.009999999999999247;
4.11;0.869584279903483;0.009999999999999247;
4.12;0.8702221167836077;0.009999999999999247;
4.13;0.8708194131840635;0.009999999999999247;
4.14;0.8714572500641883;0.009999999999999247;
4.15;0.8720902821467227;0.009999999999999247;
4.16;0.8727076986370883;0.009999999999999247;
